Step,Roll Angle 0 degree (rad unit),Roll Angle 3 degree (rad unit),Roll Angle 5 degree (rad unit),Roll Angle 7 degree (rad unit),Roll Angle 0 degree,Roll Angle 3 degree,Roll Angle 5 degree,Roll Angle 7 degree
0,0,0.052359878,0.087266463,0.122173048,0,3.000000025,5.000000023,7.000000021
1,0,0.052359878,0.087266463,0.122173048,0,3.000000025,5.000000023,7.000000021
2,-0.000310112,-0.014576628,-0.0294909,-0.022462425,-0.017768109,-0.835179264,-1.689704104,-1.28700215
3,-0.001181243,-0.0261192,-0.089388377,-0.135106695,-0.067680238,-1.496519924,-5.12157674,-7.741043407
4,-0.002238383,-0.019166321,-0.089486266,-0.141958877,-0.128249899,-1.098149302,-5.127185366,-8.133644517
5,-0.003142046,-0.018712852,-0.079157394,-0.115654613,-0.180025975,-1.072167442,-4.535384593,-6.626521206
6,-0.003958447,-0.02001195,-0.071386792,-0.100666911,-0.226802307,-1.146600275,-4.090161895,-5.767789137
7,-0.004888333,-0.021987887,-0.064431928,-0.088543239,-0.28008085,-1.259813126,-3.69167754,-5.073153899
8,-0.005947835,-0.024360153,-0.058227694,-0.077292199,-0.340785843,-1.395733955,-3.336201117,-4.428516792
9,-0.007009373,-0.027012274,-0.052872883,-0.067062236,-0.40160749,-1.547689295,-3.029393047,-3.842383088
10,-0.00799258,-0.029880513,-0.048430571,-0.058116874,-0.457941101,-1.712027285,-2.774867318,-3.329851599
11,-0.00894815,-0.032916388,-0.044904097,-0.050612623,-0.512691229,-1.885970109,-2.572815241,-2.899889688
12,-0.009916971,-0.0360764,-0.042252669,-0.044589267,-0.568200584,-2.06702546,-2.420899607,-2.554776811
13,-0.010875146,-0.039318291,-0.040404877,-0.039997038,-0.623099967,-2.252772132,-2.315028924,-2.29166147
14,-0.011779849,-0.042599205,-0.039271836,-0.036726843,-0.674935631,-2.440754657,-2.250110457,-2.104293099
15,-0.012618078,-0.045875792,-0.038757361,-0.034637815,-0.722962615,-2.628489263,-2.22063321,-1.984600611
16,-0.013400342,-0.049100802,-0.038765162,-0.03357857,-0.767783041,-2.813268725,-2.221080175,-1.923910343
17,-0.014131444,-0.052225941,-0.039203238,-0.033401516,-0.8096721,-2.992326,-2.246180081,-1.913765896
18,-0.014796219,-0.055201904,-0.039987379,-0.033970941,-0.847760901,-3.16283612,-2.29110805,-1.946391545
19,-0.015397187,-0.057979183,-0.041037972,-0.035166788,-0.882193831,-3.321962486,-2.351302595,-2.014908531
20,-0.015933083,-0.060509516,-0.042283369,-0.036883814,-0.912898411,-3.466939887,-2.422658587,-2.113286875
21,-0.016402264,-0.06274752,-0.043658629,-0.039030944,-0.939780502,-3.595168071,-2.501455181,-2.236308362
22,-0.016806443,-0.064652551,-0.045104689,-0.041528692,-0.962938253,-3.704318307,-2.584308316,-2.37941878
23,-0.017150228,-0.066192299,-0.046567751,-0.044306535,-0.982635682,-3.792539369,-2.668135594,-2.53857746
24,-0.01743874,-0.067339969,-0.047998935,-0.047300429,-0.999166202,-3.858296016,-2.750136397,-2.710114951
25,-0.017676549,-0.068079904,-0.049354082,-0.050450613,-1.012791654,-3.900691169,-2.8277806,-2.890607199
26,-0.017866168,-0.068407907,-0.050595534,-0.053700003,-1.023656022,-3.919484356,-2.89891056,-3.076783532
27,-0.01801698,-0.068331759,-0.051687525,-0.056993523,-1.032296914,-3.915121397,-2.961477036,-3.265488327
28,-0.018134156,-0.067871185,-0.05260073,-0.060275882,-1.039010604,-3.888732451,-3.013799828,-3.453553645
29,-0.018220574,-0.067057153,-0.053311809,-0.063492734,-1.043961991,-3.842091853,-3.054541654,-3.637865688
30,-0.018279996,-0.065930489,-0.053803624,-0.066590561,-1.04736662,-3.777538761,-3.082720578,-3.815358101
31,-0.018317392,-0.0645417,-0.054065494,-0.069517208,-1.049509253,-3.697967013,-3.097724623,-3.983042622
32,-0.018337336,-0.062943512,-0.054093419,-0.072222933,-1.05065196,-3.606397585,-3.099324608,-4.138069245
33,-0.018343106,-0.061192408,-0.053890003,-0.074661544,-1.050982557,-3.506066717,-3.08766973,-4.277791363
34,-0.018337288,-0.059345045,-0.053466163,-0.07679184,-1.05064921,-3.400220614,-3.063385487,-4.399848333
35,-0.018322135,-0.057455605,-0.052835161,-0.078579961,-1.049781007,-3.291963676,-3.027231735,-4.50230012
36,-0.018299529,-0.055573655,-0.052016526,-0.079998517,-1.048485779,-3.184135884,-2.980327405,-4.583577391
37,-0.018271169,-0.053767635,-0.051034081,-0.081029857,-1.04686087,-3.08065856,-2.924037453,-4.642668821
38,-0.01823848,-0.052054422,-0.049914675,-0.081666529,-1.044987929,-2.982498686,-2.859900213,-4.679147439
39,-0.018194924,-0.050457772,-0.048686972,-0.081911877,-1.042492354,-2.891017379,-2.789558013,-4.693204844
40,-0.018150327,-0.048974752,-0.047380262,-0.081779994,-1.039937134,-2.806046592,-2.714689045,-4.685648505
41,-0.018109457,-0.047654114,-0.046023342,-0.081295353,-1.037595455,-2.730379609,-2.636943256,-4.657880621
42,-0.018069774,-0.046468312,-0.044645205,-0.080491684,-1.035321787,-2.662438159,-2.557981822,-4.611833779
43,-0.018027987,-0.045430348,-0.043269429,-0.079411485,-1.032927568,-2.602967202,-2.479155664,-4.549942935
44,-0.017984211,-0.044558257,-0.041917641,-0.078101554,-1.030419388,-2.553000069,-2.401703916,-4.474889418
45,-0.017940423,-0.043828188,-0.04060829,-0.076612974,-1.027910521,-2.511170196,-2.32668363,-4.389600066
46,-0.017897566,-0.043225624,-0.03935619,-0.074998336,-1.025454995,-2.476645822,-2.254943585,-4.297088123
47,-0.017855816,-0.042736238,-0.038172624,-0.073309559,-1.023062897,-2.44860607,-2.187130248,-4.200328329
48,-0.017813579,-0.042344862,-0.037065383,-0.071595834,-1.020642895,-2.426181877,-2.123690012,-4.102139119
49,-0.017770602,-0.04203586,-0.03603905,-0.069902001,-1.018180494,-2.408477366,-2.064885463,-4.005089637
50,-0.017727649,-0.041794798,-0.035096736,-0.068267307,-1.015719468,-2.394665531,-2.010894847,-3.91142857
51,-0.017685216,-0.041605565,-0.034236654,-0.06672534,-1.013288237,-2.383823279,-1.961615779,-3.823080369
52,-0.017643133,-0.041453536,-0.03345583,-0.065301462,-1.010877058,-2.375112659,-1.916877859,-3.741498169
53,-0.017601084,-0.041325243,-0.032749822,-0.064014639,-1.008467828,-2.367762011,-1.87642658,-3.667768642
54,-0.017559001,-0.041208444,-0.032112995,-0.062877283,-1.00605665,-2.361069922,-1.839939081,-3.602602943
55,-0.017517711,-0.041092258,-0.031538884,-0.061906952,-1.003690907,-2.354412954,-1.807044944,-3.547007072
56,-0.017476396,-0.040967223,-0.031020466,-0.06108503,-1.001323732,-2.347248976,-1.77734178,-3.49991441
57,-0.017434736,-0.040825354,-0.030550459,-0.060425483,-0.99893679,-2.339120481,-1.750412363,-3.462125151
58,-0.017393043,-0.040661308,-0.030122717,-0.05991346,-0.996547957,-2.329721338,-1.725904552,-3.432788394
59,-0.017351621,-0.040469184,-0.029729194,-0.059537027,-0.994174651,-2.318713444,-1.703357345,-3.411220372
60,-0.017310431,-0.040245204,-0.029362879,-0.059282856,-0.991814638,-2.305880335,-1.682369041,-3.396657446
61,-0.01726932,-0.039987056,-0.029017357,-0.059136105,-0.989459151,-2.291089544,-1.662572089,-3.388249233
62,-0.017228229,-0.03969369,-0.028686752,-0.059081667,-0.98710481,-2.27428091,-1.643629818,-3.385130166
63,-0.017187866,-0.039365219,-0.028365775,-0.059102795,-0.984792181,-2.255460908,-1.62523919,-3.386340711
64,-0.017147406,-0.039002726,-0.028049781,-0.05918312,-0.982473993,-2.234691589,-1.607134068,-3.390942994
65,-0.017106579,-0.038608147,-0.02773477,-0.059306722,-0.980134779,-2.212083878,-1.589085267,-3.398024867
66,-0.017065711,-0.0381852,-0.027418409,-0.059458336,-0.977793215,-2.1878508,-1.570959117,-3.40671171
67,-0.017025101,-0.037736227,-0.027097147,-0.059623676,-0.975466433,-2.162126542,-1.55255216,-3.416184994
68,-0.01698471,-0.03726465,-0.026768699,-0.059789546,-0.973152199,-2.13510717,-1.533733476,-3.425688645
69,-0.016944375,-0.036774234,-0.02643148,-0.059944121,-0.970841174,-2.107008403,-1.51441225,-3.43454514
70,-0.01690404,-0.036285196,-0.026084446,-0.060077644,-0.968530149,-2.07898859,-1.494528667,-3.442195444
71,-0.016864421,-0.035788516,-0.025727041,-0.060180804,-0.966260147,-2.050530922,-1.474050869,-3.448106077
72,-0.016824707,-0.035285271,-0.02535916,-0.060246284,-0.963984703,-2.021697107,-1.45297284,-3.451857805
73,-0.016784618,-0.034778136,-0.024981052,-0.060268448,-0.961687772,-1.992640412,-1.431308847,-3.453127708
74,-0.016744488,-0.034269885,-0.024594208,-0.060243312,-0.959388493,-1.963519775,-1.409144319,-3.451687521
75,-0.016704615,-0.033763097,-0.024198728,-0.060168457,-0.957103938,-1.934482961,-1.386484984,-3.447398646
76,-0.016664947,-0.033260105,-0.023795491,-0.060042946,-0.954831129,-1.905663643,-1.363381206,-3.440207395
77,-0.016625334,-0.032763838,-0.023385632,-0.059867199,-0.952561471,-1.877229638,-1.339898015,-3.430137834
78,-0.016585726,-0.032275243,-0.02297044,-0.059643602,-0.9502921,-1.849235207,-1.316109266,-3.41732667
79,-0.016546816,-0.031795557,-0.022564899,-0.059374437,-0.948062721,-1.821751223,-1.292873478,-3.401904651
80,-0.016507807,-0.031325793,-0.022159226,-0.059063312,-0.94582767,-1.794835729,-1.269630127,-3.384078502
81,-0.016468439,-0.030866695,-0.0217525,-0.058714637,-0.94357205,-1.768531351,-1.246326444,-3.364100896
82,-0.016429028,-0.030418735,-0.021345341,-0.058333364,-0.941313966,-1.742865134,-1.222997952,-3.342255562
83,-0.016389863,-0.029982143,-0.020938624,-0.057924836,-0.939069977,-1.717850255,-1.199694784,-3.318848632
84,-0.016350908,-0.029556945,-0.020533274,-0.057494571,-0.93683802,-1.693488204,-1.17646994,-3.294196263
85,-0.016312007,-0.029143785,-0.020130919,-0.057048075,-0.934609156,-1.66981588,-1.153416696,-3.268613927
86,-0.016273102,-0.028741665,-0.01973173,-0.056591382,-0.932380064,-1.646776101,-1.130544851,-3.242447345
87,-0.016234889,-0.028350014,-0.019336334,-0.056129147,-0.930190621,-1.624336151,-1.107890329,-3.215963231
88,-0.016196583,-0.027968235,-0.018945351,-0.055666031,-0.927995848,-1.602461826,-1.085488654,-3.189428639
89,-0.016157915,-0.027595672,-0.01855933,-0.055206285,-0.925780335,-1.581115538,-1.06337128,-3.163087133
90,-0.016119209,-0.027231657,-0.018178771,-0.054753668,-0.923562645,-1.560259015,-1.041566855,-3.137154089
91,-0.016080751,-0.026875487,-0.017804072,-0.054311353,-0.921359164,-1.539851977,-1.020098184,-3.111811307
92,-0.016042491,-0.026526448,-0.017435548,-0.053881962,-0.919167027,-1.519853516,-0.998983314,-3.087209014
93,-0.016004285,-0.026184596,-0.017074115,-0.053467505,-0.916977985,-1.500266839,-0.978274728,-3.063462378
94,-0.015966083,-0.025848676,-0.016719413,-0.053070028,-0.914789171,-1.481020041,-0.957951801,-3.040688623
95,-0.015928554,-0.02551794,-0.016371444,-0.052689981,-0.912638918,-1.462070264,-0.938014646,-3.018913534
96,-0.01589093,-0.025191779,-0.01603025,-0.052327679,-0.910483222,-1.443382615,-0.91846567,-2.998155158
97,-0.015852958,-0.024869654,-0.015695818,-0.051983059,-0.908307586,-1.424926212,-0.899304127,-2.978409887
98,-0.015814949,-0.02455109,-0.015368103,-0.05165565,-0.906129831,-1.406673839,-0.880527441,-2.959650733
99,-0.015777176,-0.024235668,-0.015047029,-0.051344672,-0.903965597,-1.38860149,-0.862131256,-2.941833006
100,-0.015739605,-0.023923034,-0.014732482,-0.05104904,-0.901812938,-1.370688881,-0.84410904,-2.92489454
101,-0.015702089,-0.023613564,-0.01442488,-0.050767456,-0.899663429,-1.352957556,-0.826484744,-2.908760965
102,-0.015664567,-0.023306475,-0.014123608,-0.050499022,-0.897513577,-1.335362653,-0.80922313,-2.89338083
103,-0.015627713,-0.023001473,-0.013828414,-0.050241725,-0.895401998,-1.317887325,-0.79230976,-2.878638798
104,-0.015590769,-0.0226984,-0.013539101,-0.049993874,-0.893285263,-1.300522522,-0.775733346,-2.864437982
105,-0.015553475,-0.022397146,-0.013255462,-0.049753796,-0.891148474,-1.283261939,-0.759482028,-2.850682526
106,-0.015516148,-0.022107587,-0.012977324,-0.049519865,-0.889009795,-1.26667143,-0.743545895,-2.837279267
107,-0.015479058,-0.021821584,-0.012704496,-0.049290509,-0.886884694,-1.250284665,-0.727914002,-2.824138136
108,-0.015442162,-0.021537484,-0.012436786,-0.049064246,-0.884770709,-1.234006935,-0.712575349,-2.811174221
109,-0.015405316,-0.02125484,-0.012174497,-0.048839733,-0.882659589,-1.217812626,-0.697547296,-2.798310573
110,-0.015368472,-0.02097348,-0.011917068,-0.048616281,-0.880548583,-1.201691886,-0.682797701,-2.785507717
111,-0.015332283,-0.020693308,-0.011664264,-0.048392412,-0.878475106,-1.185639213,-0.668313098,-2.772680968
112,-0.015295997,-0.020414863,-0.011415917,-0.048167123,-0.876396072,-1.169685489,-0.654083863,-2.759772859
113,-0.015259376,-0.02013769,-0.011171883,-0.047939625,-0.874297843,-1.153804646,-0.640101745,-2.746738184
114,-0.015222725,-0.01986173,-0.010932033,-0.04770931,-0.872197895,-1.137993303,-0.626359352,-2.733542106
115,-0.015186296,-0.019587029,-0.010696234,-0.047475714,-0.870110667,-1.122254095,-0.612849065,-2.720158042
116,-0.015150066,-0.019313674,-0.010464391,-0.047238548,-0.868034841,-1.106592007,-0.599565439,-2.706569431
117,-0.015113888,-0.019041762,-0.010236791,-0.04699764,-0.865961994,-1.091012597,-0.58652492,-2.692766419
118,-0.015077703,-0.018771413,-0.010013011,-0.046753462,-0.863888747,-1.07552274,-0.573703271,-2.67877605
119,-0.015042164,-0.018502752,-0.009792916,-0.046505691,-0.861852512,-1.060129599,-0.561092756,-2.664579818
120,-0.015006535,-0.018236421,-0.009576412,-0.046254419,-0.859811121,-1.044869957,-0.54868799,-2.650182993
121,-0.014970573,-0.017972131,-0.009363436,-0.045999899,-0.85775065,-1.029727255,-0.536485365,-2.635600071
122,-0.014934578,-0.01770992,-0.009153917,-0.045742436,-0.855688288,-1.014703672,-0.52448081,-2.620848527
123,-0.014898809,-0.017449889,-0.008947813,-0.045482396,-0.853638875,-0.999804993,-0.512671921,-2.605949333
124,-0.014863235,-0.017192149,-0.008745076,-0.045220189,-0.851600635,-0.985037578,-0.501055946,-2.590925978
125,-0.014827704,-0.016936786,-0.008545981,-0.044956241,-0.849564859,-0.970406356,-0.489648643,-2.575802872
126,-0.014792173,-0.016683904,-0.008350229,-0.044691515,-0.847529083,-0.955917285,-0.47843288,-2.56063519
127,-0.014757279,-0.016433584,-0.008157725,-0.044426067,-0.845529804,-0.941575005,-0.467403213,-2.545426139
128,-0.014722286,-0.016186344,-0.007968431,-0.044160264,-0.843524853,-0.927409197,-0.456557466,-2.530196749
129,-0.014686973,-0.015941882,-0.007782306,-0.043894504,-0.841501567,-0.913402556,-0.445893289,-2.514969823
130,-0.014651632,-0.01570017,-0.007599332,-0.043629159,-0.839476677,-0.899553479,-0.435409651,-2.499766674
131,-0.014616506,-0.015461217,-0.007419481,-0.043364603,-0.837464105,-0.88586248,-0.425104947,-2.484608732
132,-0.014581572,-0.015225064,-0.007242721,-0.043101147,-0.835462534,-0.87233191,-0.414977345,-2.469513815
133,-0.014546685,-0.014991717,-0.00706931,-0.04283907,-0.833463656,-0.858962112,-0.405041627,-2.454497909
134,-0.014511797,-0.014761183,-0.00689899,-0.042579085,-0.831464721,-0.845753487,-0.39528301,-2.439601866
135,-0.014477528,-0.014533473,-0.006731702,-0.042321016,-0.829501252,-0.832706665,-0.385698114,-2.424815602
136,-0.014443169,-0.014308982,-0.0065674,-0.042064972,-0.827532626,-0.819844278,-0.376284302,-2.410145361
137,-0.014408498,-0.014087367,-0.006406073,-0.041811045,-0.825546125,-0.807146674,-0.367040946,-2.395596416
138,-0.014373788,-0.013868544,-0.00624769,-0.0415593,-0.823557388,-0.794609039,-0.357966269,-2.38117249
139,-0.014339298,-0.013652481,-0.006092225,-0.041309778,-0.821581257,-0.782229541,-0.34905878,-2.366875932
140,-0.014305002,-0.01343915,-0.005939658,-0.041062482,-0.819616241,-0.770006575,-0.340317335,-2.352706915
141,-0.01427074,-0.013228511,-0.005790185,-0.04081741,-0.817653173,-0.75793785,-0.331753163,-2.338665324
142,-0.014236482,-0.013020546,-0.005643598,-0.040574963,-0.815690334,-0.746022333,-0.323354347,-2.324774134
143,-0.014202837,-0.012815221,-0.005499821,-0.040334711,-0.813762617,-0.734258077,-0.315116531,-2.311008708
144,-0.014169097,-0.01261285,-0.005358835,-0.040096525,-0.811829458,-0.722663073,-0.307038629,-2.297361656
145,-0.014127587,-0.012413117,-0.005220602,-0.039860288,-0.80945111,-0.711219215,-0.299118461,-2.283826273
146,-0.014088118,-0.012215923,-0.005085097,-0.039625897,-0.807189703,-0.699920831,-0.291354597,-2.270396658
147,-0.014054353,-0.01202122,-0.004952284,-0.039393228,-0.805255111,-0.688765171,-0.283744972,-2.257065706
148,-0.014023162,-0.011828973,-0.004822144,-0.039162152,-0.803467998,-0.677750229,-0.276288499,-2.243826026
149,-0.013990035,-0.011639146,-0.004694824,-0.038932572,-0.801569961,-0.666873943,-0.268993601,-2.230672061
150,-0.013964519,-0.011451711,-0.004570137,-0.0387048,-0.800108002,-0.656134709,-0.261849562,-2.217621687
151,-0.013935849,-0.011266625,-0.004448027,-0.038478383,-0.798465332,-0.645530062,-0.254853174,-2.204648948
152,-0.013901131,-0.011084184,-0.004328456,-0.038253158,-0.796476137,-0.635076963,-0.248002261,-2.191744506
153,-0.013865219,-0.010904095,-0.004211394,-0.038035745,-0.794418531,-0.624758623,-0.241295102,-2.179287659
154,-0.013831841,-0.010726271,-0.004096797,-0.037814012,-0.792506112,-0.614570058,-0.234729178,-2.166583294
155,-0.013800154,-0.010550685,-0.003984647,-0.037592197,-0.790690581,-0.604509721,-0.228303456,-2.153874231
156,-0.013767851,-0.010377301,-0.003874904,-0.037377506,-0.788839755,-0.59457555,-0.222015645,-2.141573343
157,-0.013734401,-0.010206097,-0.003767687,-0.037164741,-0.786923211,-0.584766283,-0.215872564,-2.129382806
158,-0.013700802,-0.010037045,-0.003662828,-0.036946776,-0.784998131,-0.575080317,-0.209864585,-2.116894331
159,-0.013668328,-0.009870128,-0.003560285,-0.03672817,-0.783137507,-0.565516678,-0.203989304,-2.10436913
160,-0.013636068,-0.009705601,-0.003460011,-0.036509623,-0.781289146,-0.556089975,-0.198244027,-2.09184731
161,-0.013603335,-0.009543204,-0.003361976,-0.036291263,-0.779413683,-0.546785312,-0.192627036,-2.079336203
162,-0.013570346,-0.009382887,-0.003266141,-0.036073169,-0.777523552,-0.537599825,-0.187136095,-2.066840337
163,-0.013537555,-0.009224613,-0.003172482,-0.035861746,-0.775644766,-0.528531393,-0.181769829,-2.054726692
164,-0.01350505,-0.009068364,-0.003080962,-0.035651974,-0.773782367,-0.519578984,-0.176526119,-2.042707642
165,-0.013472651,-0.00891412,-0.002991661,-0.03544299,-0.771926041,-0.510741454,-0.171409549,-2.03073374
166,-0.013440223,-0.008761866,-0.002904451,-0.035234564,-0.770068054,-0.502017942,-0.166412784,-2.01879181
167,-0.013408328,-0.008611591,-0.002819282,-0.035026584,-0.768240605,-0.493407819,-0.16153296,-2.006875434
168,-0.013376348,-0.008463507,-0.002736119,-0.034818967,-0.766408286,-0.484923231,-0.156768071,-1.994979856
169,-0.013344101,-0.008317411,-0.002654921,-0.034612032,-0.764560669,-0.476552547,-0.152115768,-1.983123354
170,-0.013311846,-0.008173243,-0.002575658,-0.034405454,-0.762712593,-0.468292329,-0.147574333,-1.971287306
171,-0.013279783,-0.008030979,-0.002498306,-0.034199151,-0.760875519,-0.460141202,-0.14314239,-1.959467015
172,-0.013247888,-0.007890603,-0.002422828,-0.033993088,-0.75904807,-0.45209825,-0.138817819,-1.947660475
173,-0.013216041,-0.007752102,-0.002349282,-0.033787277,-0.757223371,-0.444162727,-0.134603943,-1.935868373
174,-0.013184193,-0.007615465,-0.002277561,-0.03358173,-0.755398615,-0.436334004,-0.130494633,-1.924091398
175,-0.013152917,-0.007480665,-0.002207621,-0.033376469,-0.753606632,-0.428610532,-0.126487366,-1.912330809
176,-0.013121559,-0.007347912,-0.002139426,-0.033171524,-0.751809951,-0.421004346,-0.12258008,-1.900588325
177,-0.013089912,-0.007217009,-0.002072942,-0.032967297,-0.749996712,-0.413504156,-0.118770828,-1.88888698
178,-0.013058235,-0.00708791,-0.002008146,-0.032763557,-0.748181753,-0.406107329,-0.11505829,-1.877213538
179,-0.013026761,-0.00696059,-0.001945,-0.03256029,-0.746378426,-0.39881243,-0.111440291,-1.865567197
180,-0.012995466,-0.00683504,-0.00188348,-0.032357523,-0.744585355,-0.391618945,-0.107915455,-1.853949503
181,-0.012964201,-0.006711242,-0.001823618,-0.032155316,-0.742794002,-0.384525842,-0.104485615,-1.842363896
182,-0.012932939,-0.006589179,-0.001765335,-0.031953712,-0.741002821,-0.377532147,-0.101146245,-1.830812837
183,-0.012902238,-0.006468841,-0.001708584,-0.031752745,-0.739243784,-0.370637288,-0.097894652,-1.819298276
184,-0.012871449,-0.006350397,-0.001653338,-0.03155247,-0.737479704,-0.363850946,-0.09472929,-1.807823364
185,-0.012840374,-0.006233679,-0.001599558,-0.031353278,-0.735699238,-0.357163498,-0.091647922,-1.796410503
